;Size: 168
;Rate: 20000000
;Channels: 32
;EnabledChannels: 255
;TriggerPosition: 157062
;Compressed: true
;AbsoluteLength: 1560507
;CursorEnabled: false
00000002@0
00000003@157063
00000001@187984
00000003@190051
00000001@190054
00000003@190055
00000001@194026
00000003@196095
00000001@196096
00000003@196097
00000001@202082
00000003@206164
00000001@273554
00000003@277636
00000001@279597
00000003@281666
00000001@291681
00000003@293748
00000001@293751
00000003@293752
00000001@297934
00000003@300003
00000001@300004
00000003@300005
00000001@303977
00000003@308059
00000001@310019
00000003@316114
00000001@322314
00000003@342508
00000001@342509
00000003@342510
00000001@346694
00000003@348763
00000001@348764
00000003@348765
00000001@364821
00000003@366888
00000001@366889
00000003@366890
00000001@371074
00000003@373141
00000001@375102
00000003@387241
00000001@389200
00000003@391270
00000001@395454
00000003@397521
00000001@397522
00000003@397523
00000001@397524
00000003@397525
00000001@399482
00000003@405581
00000001@409552
00000003@413635
00000001@413636
00000003@413637
00000001@419834
00000003@436000
00000001@436002
00000003@436003
00000001@444214
00000003@446283
00000001@448242
00000003@450309
00000001@450310
00000003@450311
00000001@452270
00000003@458365
00000001@460326
00000003@462393
00000001@462394
00000003@462395
00000001@462396
00000003@462397
00000001@468593
00000003@488787
00000001@488790
00000003@488791
00000001@492973
00000003@495042
00000001@495043
00000003@495044
00000001@497001
00000003@503099
00000001@503100
00000003@503101
00000001@507072
00000003@511153
00000001@511154
00000003@511155
00000001@511156
00000003@511157
00000001@517353
00000003@519422
00000001@519423
00000003@519424
00000001@521381
00000003@531505
00000001@541733
00000003@543802
00000001@543803
00000003@543804
00000001@547775
00000003@551860
00000001@557846
00000003@559913
00000001@566113
00000003@580266
00000001@580267
00000003@580269
00000001@584239
00000003@586309
00000001@586310
00000003@586311
00000001@590493
00000003@592560
00000001@592561
00000003@592562
00000001@592563
00000003@592564
00000001@594521
00000003@608674
00000001@608675
00000003@608676
00000001@614873
00000003@635068
00000001@635069
00000003@635070
00000001@639253
00000003@659447
00000001@659449
00000003@659450
00000001@663632
00000003@673756
00000001@675717
00000003@679798
00000001@679799
00000003@679800
00000001@679801
00000003@679802
00000001@681759
00000003@683826
00000001@683829
00000003@683830
00000001@688012
00000003@708208
00000001@708209
00000003@708210
00000001@712463
00000003@714532
00000001@714533
00000003@714534
00000001@716491
00000003@722586
00000001@722589
00000003@722590
00000001@726561
00000003@728628
00000001@728629
00000003@728632
00000001@730589
00000003@732658
00000001@732659
00000003@732660
00000002@962915
00000000@963002
