;Size: 120
;Rate: 20000000
;Channels: 32
;EnabledChannels: 255
;TriggerPosition: 157078
;Compressed: true
;AbsoluteLength: 1566322
;CursorEnabled: false
00000002@0
00000003@157079
00000001@194366
00000003@196380
00000001@200414
00000003@212498
00000001@226613
00000003@240717
00000001@242731
00000003@246754
00000001@584450
00000003@586464
00000001@592512
00000003@594526
00000001@600568
00000003@602582
00000001@616697
00000003@618711
00000001@622744
00000003@624758
00000001@628786
00000003@630800
00000001@632815
00000003@636837
00000001@648943
00000003@650957
00000001@663047
00000003@665061
00000001@667075
00000003@669084
00000001@681190
00000003@683204
00000001@685223
00000003@687237
00000001@689252
00000003@691265
00000001@713437
00000003@715450
00000001@745683
00000003@747697
00000001@759787
00000003@763815
00000001@777930
00000003@779944
00000001@783977
00000003@788005
00000001@792034
00000003@796062
00000001@810176
00000003@814210
00000001@816224
00000003@820252
00000001@828308
00000003@830317
00000001@842423
00000003@844437
00000001@850485
00000003@852499
00000001@854513
00000003@856527
00000001@858541
00000003@862563
00000001@874670
00000003@876684
00000001@878703
00000003@882731
00000001@884745
00000003@886759
00000001@890788
00000003@892801
00000001@906916
00000003@925048
00000001@939163
00000003@941177
00000001@943196
00000003@945210
00000001@949239
00000003@951253
00000001@953267
00000003@955281
00000001@957295
00000003@959303
00000001@971409
00000003@973423
00000001@975443
00000003@977457
00000001@979471
00000003@981485
00000001@1003656
00000003@1013732
00000001@1035903
00000003@1039936
00000001@1054035
00000003@1056043
00000001@1068149
00000003@1070163
00000001@1082253
00000003@1086281
00000001@1100396
00000003@1102410
00000001@1104429
00000003@1106443
00000001@1110472
00000003@1112486
00000001@1114500
00000003@1118528
00000001@1132643
00000003@1134656
00000001@1136676
00000003@1138690
00000001@1142718
00000003@1146746
00000001@1150775
00000003@1152783
00000001@1164992
00000003@1167006
00000001@1179096
00000003@1183124
00000002@1430191
00000000@1430258
